# O(3P)+CO2(000; j=0) -> O(3P)+CO2(000; j') scattering, statistically averaged (3A2+3B2+3B1) potential energy surfaces
# Differential cross sections; packaged by M. Gacesa (marko.gacesa@nasa.gov), Apr 30 2019
# E = 0.0297562 eV
# theta(rad)                 elastic DCS                total DCS (both in units of 1E-16 cm^2/Sr)
0.	425750.3666666667	436316.55911505583
0.0017453292519943296	416226.6333333333	426498.97746533324
0.003490658503988659	389877.3333333333	399327.8184033333
0.005235987755982989	351913.4666666666	360165.48569266667
0.006981317007977318	307820.9333333333	314682.6809616666
0.008726646259971648	261888.8333333333	267336.5039833333
0.010471975511965978	217229.46666666667	221367.08949866664
0.012217304763960305	176069.89999999997	179083.73820433335
0.013962634015954637	139774.7	141890.89635033335
0.015707963267948967	108907.56999999998	110357.32566509998
0.017453292519943295	83471.37333333332	84466.6716525
0.019198621771937624	63127.37666666666	63846.271137933334
0.020943951023931956	47313.63999999999	47893.82999516666
0.02268928027592628	35348.979999999996	35887.506642333334
0.02443460952792061	26534.769999999997	27092.00392253333
0.02617993877991494	20211.039999999997	20816.996688933334
0.027925268031909273	15783.05	16444.641986533334
0.029670597283903602	12746.419999999998	13454.707512666668
0.031415926535897934	10695.478	11432.178560776667
0.03316125578789226	9309.995333333332	10052.747712609998
0.03490658503988659	8345.046333333332	9071.416149589999
0.03665191429188092	7627.941333333333	8318.2354357
0.03839724354387525	7044.944	7683.896914593333
0.040142572795869566	6521.759666666667	7099.264089589999
0.04188790204786391	6013.919999999999	6525.070284539999
0.043633231299858244	5502.921333333333	5947.5839045466655
0.04537856055185256	4986.948333333333	5369.001801946666
0.047123889803846894	4471.0633333333335	4797.46962245
0.04886921905584122	3964.25	4244.0934808366665
0.05061454830783555	3478.522333333333	3722.0849702
0.05235987755982988	3025.4659999999994	3243.3860468666667
0.054105206811824215	2613.795	2816.3717788
0.05585053606381855	2249.711	2446.3550758266665
0.05759586531581287	1936.9560000000001	2135.7709385499998
0.059341194567807204	1676.1963333333333	1883.6975294233334
0.061086523819801536	1465.6569999999997	1686.6311650333332
0.06283185307179587	1302.0006666666666	1539.4779688266665
0.0645771823237902	1180.1565333333333	1435.4580154133332
0.06632251157578452	1093.5881666666667	1366.4534894366666
0.06806784082777885	1035.5673666666667	1324.3553230866667
0.06981317007977318	999.6428000000001	1301.5701490533331
0.0715584993317675	979.1773000000001	1290.5822996663333
0.07330382858376185	967.7223666666666	1284.344004759
0.07504915783575618	959.9777666666665	1277.2469751333333
0.0767944870877505	951.8013333333333	1265.116935395
0.07853981633974483	939.6967	1244.6823160033332
0.08028514559173913	921.0337666666667	1213.7656950983333
0.08203047484373349	894.4685999999999	1171.6683888313332
0.08377580409572782	859.6859333333333	1118.8656953793334
0.08552113334772216	817.0038333333333	1056.5645830696665
0.08726646259971649	767.4051999999999	986.6885493836667
0.08901179185171079	712.5328666666667	911.8152867230001
0.09075712110370512	654.3800666666667	834.8189633643333
0.09250245035569944	595.0825	758.6226198889999
0.09424777960769379	536.8566999999999	686.0993115553333
0.09599310885968812	481.8086333333333	619.8458013546666
0.09773843811168244	431.74236666666667	561.9719825330001
0.09948376736367677	388.1516	514.087815505
0.1012290966156711	352.1751333333333	477.2586647766666
0.10297442586766543	324.43743333333333	451.8532649216666
0.10471975511965977	305.0382666666667	437.5544230836666
0.10646508437165408	293.6866333333333	433.5252830346666
0.10821041362364843	289.72233333333327	438.463844938
0.10995574287564276	292.0796333333333	450.602907662
0.1117010721276371	299.40273333333334	467.8675219953334
0.11344640137963143	310.21146666666664	488.08148500900006
0.11519173063162574	322.95629999999994	509.058790125
0.11693705988362009	336.0711333333333	528.6884889423333
0.11868238913561441	348.10113333333334	545.0895804726666
0.12042771838760875	357.7892	556.715970234
0.12217304763960307	364.1038	562.3939026133332
0.12391837689159738	366.3012	561.3869927813332
0.12566370614359174	363.9749	553.439693048
0.12740903539558604	357.02099999999996	538.7269099539999
0.1291543646475804	345.61089999999996	517.8056234176667
0.13089969389957473	330.2148666666667	491.61433757133324
0.13264502315156904	311.5609666666667	461.40248233933335
0.1343903524035634	290.52076666666665	428.58320753366667
0.1361356816555577	268.0541333333333	394.6473413033333
0.13788101090755206	245.20123333333336	361.1277521773334
0.13962634015954636	223.0035333333333	329.4943029456666
0.1413716694115407	202.39635666666666	301.02371231633333
0.143116998663535	184.17703666666665	276.75263442199997
0.14486232791552936	168.99682666666666	257.4617243636667
0.1466076571675237	157.30860666666663	243.62008352799995
0.148352986419518	149.33336999999997	235.3549201043333
0.15009831567151236	145.07979	232.48120046766667
0.15184364492350666	144.35219999999998	234.52511493599997
0.153588974175501	146.75164666666666	240.74367377233332
0.15533430342749535	151.72592	250.19652233800002
0.15707963267948966	158.62393333333333	261.82411142366664
0.158824961931484	166.70508333333333	274.4803756104
0.16057029118347826	175.17466333333334	286.9905508773667
0.16231562043547265	183.2754333333333	298.2630959723
0.16406094968746698	190.33369	307.3527013401333
0.16580627893946132	195.74246666666664	313.45565106256663
0.16755160819145565	198.99424333333334	315.95018333019993
0.16929693744344992	199.75898333333333	314.4784707578
0.1710422666954443	197.88820666666666	308.94866609289994
0.17278759594743864	193.36226999999997	299.4751870038667
0.17453292519943298	186.29714333333334	286.37508611696666
0.17627825445142725	176.9795033333333	270.1901461348
0.17802358370342158	165.82815333333332	251.6320808820333
0.17976891295541597	153.32531999999998	231.49565304850003
0.18151424220741025	140.0035933333333	210.62804826336665
0.18325957145940458	126.44281666666667	189.9088783579
0.18500490071139888	113.21810333333333	170.18228313576668
0.18675022996339324	100.85112666666664	152.19443572353333
0.18849555921538758	89.79982666666666	136.57323337656663
0.1902408884673819	80.44058333333332	123.8033033686
0.19198621771937624	73.03603	114.1905246976
0.19373154697137057	67.73278333333333	107.85993072146667
0.19547687622336488	64.56987999999998	104.76819270556666
0.19722220547535924	63.463806666666656	104.69541375573331
0.19896753472735354	64.21045333333332	107.25680590509998
0.2007128639793479	66.52807999999999	111.95720156543334
0.2024581932313422	70.07976	118.2268431609
0.20420352248333656	74.46267333333334	125.4234357863
0.20594885173533087	79.23318333333333	132.8707319655333
0.20769418098732523	83.96887666666666	139.93297995226663
0.20943951023931953	88.28693	146.04401972206665
0.2111848394913139	91.82711333333333	150.69859362293334
0.21293016874330817	94.27789666666666	153.48458636276666
0.21467549799530256	95.42611666666666	154.13653150626666
0.21642082724729686	95.15478333333331	152.5340402945
0.2181661564992912	93.41449666666666	148.6708484811
0.21991148575128552	90.23420999999999	142.6613813789
0.22165681500327983	85.74168	134.7547536307
0.2234021442552742	80.14025	125.30317375393334
0.22514747350726852	73.67528333333333	114.71910580596665
0.22689280275926285	66.63051999999999	103.4616532657
0.22863813201125716	59.322203333333334	92.02083186413333
0.2303834612632515	52.06952999999999	80.87849920406666
0.23212879051524585	45.17241666666666	70.47796833609999
0.23387411976724018	38.90481333333333	61.210345993166655
0.23561944901923448	33.497952999999995	53.39254636713333
0.23736477827122882	29.122465999999996	47.24619090303333
0.23911010752322315	25.890110333333332	42.89843360553333
0.2408554367752175	23.854479666666666	40.38357286136666
0.24260076602721184	22.996894	39.63149361116667
0.24434609527920614	23.228496666666665	40.47424034743333
0.24609142453120048	24.41516	42.676952566833336
0.24783675378319475	26.38624	45.95328623
0.24958208303518917	28.92631	49.96414014966667
0.25132741228718347	31.791539999999998	54.341496299966664
0.2530727415391778	34.74418333333333	58.730139680466664
0.2548180707911721	37.56095	62.802271619466666
0.25656340004316636	40.025483333333334	66.25516089826667
0.2583087292951608	41.94580333333333	68.83269397029999
0.26005405854715513	43.181259999999995	70.35500935306666
0.26179938779914946	43.641526666666664	70.71842888496667
0.2635447170511437	43.27475666666666	69.8830563506
0.26529004630313807	42.07569333333333	67.87901668696666
0.26703537555513246	40.09541	64.81292942246667
0.2687807048071268	37.42943333333333	60.85167022309999
0.270526034059121	34.20272666666666	56.20242529563334
0.2722713633111154	30.56755	51.10510573029999
0.2740166925631097	26.698006666666664	45.82116240126666
0.2757620218151041	22.77433	40.6125041586
0.27750735106709834	18.971829666666665	35.725778572366664
0.2792526803190927	15.455146333333333	31.382572982099994
0.280998009571087	12.367199999999999	27.765086634200003
0.2827433388230814	9.819513333333333	25.004574284466663
0.2844886680750758	7.891923533333333	23.18058910196
0.28623399732707	6.630577100000001	22.319429002496666
0.28797932657906433	6.040188333333333	22.387867455933332
0.2897246558310587	6.085479666666666	23.2973806782
0.291469985083053	6.7023106666666665	24.91900999853333
0.2932153143350474	7.801255333333332	27.091023936533333
0.29496064358704166	9.265707666666666	29.621386128066664
0.296705972839036	10.961586999999998	32.302156461133336
0.2984513020910303	12.753322999999998	34.93002370446666
0.3001966313430247	14.508950333333333	37.31531926503333
0.301941960595019	16.10053333333333	39.285708179366665
0.3036872898470133	17.414316	40.69892239086666
0.30543261909900765	18.362541999999998	41.4561528692
0.307177948351002	18.884458666666664	41.50352348446667
0.3089232776029963	18.94439933333333	40.82963397866666
0.3106686068549907	18.535814666666667	39.468139368833334
0.312413936106985	17.683675666666666	37.497658355599995
0.3141592653589793	16.439467666666665	35.03355869796667
0.31590459461097364	14.875706333333333	32.2188745969
0.317649923862968	13.083073333333333	29.217368857066663
0.3193952531149623	11.164912666666666	26.203758565266668
0.32114058236695653	9.229463666666668	23.351889175066663
0.32288591161895097	7.384028333333333	20.825390726466665
0.3246312408709453	5.729525333333333	18.769046614766665
0.32637657012293964	4.353402666666666	17.299136153133333
0.32812189937493397	3.3246720666666665	16.496935225833333
0.32986722862692824	2.6920406999999997	16.406344185066665
0.33161255787892263	2.4812133	17.0314190824
0.3333578871309169	2.692103533333333	18.334644023733333
0.3351032163829113	3.3000381999999995	20.240246233966666
0.3368485456349056	4.259182666666666	22.64051674503333
0.33859387488689985	5.504646666666666	25.401182118366666
0.34033920413889424	6.955481333333333	28.36802208346667
0.3420845333908886	8.520590666666667	31.3767317232
0.3438298626428829	10.104514666666667	34.262640428733334
0.3455751918948773	11.612021333333333	36.86884830286667
0.34732052114687156	12.953803	39.05508549926667
0.34906585039886595	14.052186666666666	40.70607212463333
0.3508111796508603	14.844369	41.736619256266664
0.3525565089028545	15.285308	42.09555143116666
0.3543018381548489	15.35167	41.7698736682
0.35604716740684317	15.042950333333332	40.785250643933324
0.35779249665883756	14.379082	39.202095964499996
0.35953782591083194	13.399367333333332	37.11228807973333
0.3612831551628262	12.162485666666663	34.63643090746666
0.3630284844148205	10.742359666666665	31.916445698133334
0.3647738136668149	9.221361	29.105184464866667
0.36651914291880916	7.686614333333332	26.359115502066665
0.36826447217080355	6.227453666666666	23.8323323069
0.37000980142279777	4.929275766666666	21.667135484266666
0.3717551306747922	3.8668954666666666	19.984524618699997
0.3735004599267865	3.101819233333333	18.879268889833334
0.3752457891787809	2.680315333333333	18.416531159333335
0.37699111843077515	2.6296893333333333	18.627331618566664
0.3787364476827695	2.956277	19.5064889525
0.3804817769347638	3.646385666666667	21.014384636466666
0.38222710618675815	4.666953333333333	23.07917757233333
0.3839724354387525	5.966497333333334	25.599853362833333
0.38571776469074687	7.478999333333334	28.45273367993333
0.38746309394274114	9.128121	31.498729227666665
0.3892084231947355	10.829450333333334	34.58884873006666
0.39095375244672975	12.494803	37.57175317713333
0.39269908169872414	14.039494333333334	40.3041468512
0.39444441095071847	15.386526999999997	42.65786910453333
0.3961897402027128	16.46746233333333	44.52317529049999
0.3979350694547071	17.226602	45.814812170399996
0.39968039870670136	17.627353333333332	46.4796569427
0.4014257279586958	17.652942333333332	46.498021817566666
0.4031710572106902	17.30347833333333	45.88056272179999
0.4049163864626844	16.597237	44.66877827963333
0.4066617157146788	15.573257666666667	42.93617805083333
0.4084070449666731	14.287502666666665	40.7824722105
0.41015237421866746	12.806499666666667	38.32477655666666
0.41189770347066174	11.205697	35.69324336379999
0.413643032722656	9.568397000000001	33.027163749466666
0.41538836197465046	7.9796	30.46588115933333
0.4171336912266447	6.5193741	28.139424132366663
0.41887902047863906	5.260625153333333	26.163785819466668
0.42062434973063334	4.2669006	24.6366888533
0.4223696789826278	3.587664	23.631238061933335
0.4241150082346221	3.2552190000000003	23.19184475666666
0.42586033748661634	3.284511333333333	23.333635498366665
0.4276056667386108	3.672332	24.041863622499996
0.4293509959906051	4.396683666666666	25.272089502566665
0.43109632524259933	5.4190206666666665	26.953800437433333
0.4328416544945937	6.686834333333332	28.9948310411
0.434586983746588	8.134704	31.2845959102
0.4363323129985824	9.687610999999999	33.69985525823333
0.43807764225057666	11.267060999999998	36.113419381
0.43982297150257105	12.794643666666666	38.40027443766667
0.44156830075456543	14.193259666666666	40.441173467
0.44331363000655966	15.391726	42.12939198833333
0.445058959258554	16.33119	43.37895160826666
0.4468042885105484	16.966841	44.1276128161
0.44854961776254265	17.267018666666665	44.33675853016667
0.45029494701453704	17.21606	43.994490117933324
0.4520402762665313	16.817774333333332	43.118819312166664
0.4537856055185257	16.093558666666667	41.7548910978
0.45553093477052	15.078621333333333	39.969884093766666
0.4572762640225143	13.821764000000002	37.85105432613334
0.45902159327450864	12.384966333333333	35.50327854616666
0.460766922526503	10.838693	33.0420432822
0.46251225177849725	9.256756333333334	30.586016611333335
0.4642575810304917	7.714166	28.25255185166666
0.46600291028248597	6.284424	26.152793804733335
0.46774823953448036	5.034735399999999	24.384978670833334
0.4694935687864746	4.022481933333333	23.029372522999996
0.47123889803846897	3.2934741666666665	22.1453891052
0.4729842272904633	2.879572666666667	21.768521657833332
0.47472955654245763	2.796688666666667	21.908207186333332
0.4764748857944519	3.0450006666666667	22.548461800633333
0.4782202150464463	3.609356	23.649124797766667
0.4799655442984406	4.4588779999999995	25.146716513166666
0.481710873550435	5.548718666666667	26.9578838359
0.48345620280242924	6.823974000000001	28.98532718983333
0.4852015320544237	8.221995666666666	31.122223697699997
0.48694686130641796	9.673624999999998	33.25565419973333
0.4886921905584123	11.107302666666666	35.272899608399996
0.49043751981040656	12.454374666666666	37.06885472403333
0.49218284906240095	13.651402999999998	38.55010830836666
0.4939281783143953	14.641304333333332	39.63751734463333
0.4956735075663895	15.377045666666668	40.271006695266664
0.4974188368183839	15.825370999999999	40.4139460127
0.49916416607037833	15.967095666666665	40.053555859999996
0.5009094953223726	15.796507999999998	39.1999801306
0.5026548245743669	15.322577666666668	37.886713744266665
0.5044001538263612	14.569286	36.16972156269999
0.5061454830783556	13.573305666666666	34.12354483206667
0.5078908123303499	12.381611999999999	31.837081274299997
0.5096361415823442	11.049967333333331	29.41005104963333
0.5113814708343385	9.640245333333333	26.948188041566667
0.5131268000863327	8.216849	24.5575683897
0.5148721293383272	6.844042666666667	22.340003410799998
0.5166174585903216	5.583291666666666	20.388611935266663
0.5183627878423158	4.489673999999999	18.782716755899997
0.5201081170943103	3.609318933333333	17.584216446433334
0.5218534463463045	2.97849287	16.836013059533332
0.5235987755982989	2.621836666666667	16.559992989666664
0.5253441048502931	2.550078	16.7548841303
0.5270894341022874	2.7601933333333335	17.397083394933333
0.5288347633542818	3.2372033333333334	18.443539608666665
0.5305800926062761	3.9543763333333333	19.8333147761
0.5323254218582705	4.873182666666667	21.4891415061
0.5340707511102649	5.946080666666667	23.3220958151
0.5358160803622593	7.1202380000000005	25.2373225173
0.5375614096142536	8.339122333333332	27.1375760136
0.5393067388662478	9.543988666666667	28.926529016799996
0.541052068118242	10.677543666666667	30.514202094799998
0.5427973973702365	11.687504333333333	31.822010120299996
0.5445427266222308	12.528003999999997	32.78530285059999
0.5462880558742251	13.161007999999999	33.355511587033334
0.5480333851262194	13.558693	33.5029632789
0.5497787143782138	13.704805666666667	33.218214015866664
0.5515240436302082	13.59457	32.511514358599996
0.5532693728822025	13.234857	31.412148731466665
0.5550147021341967	12.644066666666667	29.967208419099997
0.5567600313861911	11.850590666666665	28.238618627499996
0.5585053606381855	10.891172	26.299844700066664
0.5602506898901798	9.809871333333332	24.233164175133332
0.561996019142174	8.655890333333332	22.1256678333
0.5637413483941685	7.480129	20.064040572866663
0.5654866776461628	6.333130333333334	18.130903984133333
0.5672320068981571	5.264113999999999	16.40244378343333
0.5689773361501516	4.318230999999999	14.944487630100001
0.5707226654021459	3.5331525999999998	13.808211778366665
0.57246799465414	2.938235133333333	13.0288175989
0.5742133239061344	2.554816723333333	12.625731805800001
0.5759586531581287	2.3945344	12.601132886766667
0.5777039824101231	2.4575846666666665	12.938746198933332
0.5794493116621174	2.7338986666666667	13.605945385199998
0.5811946409141118	3.205076333333333	14.5568846566
0.582939970166106	3.8443923333333334	15.73385347394333
0.5846852994181004	4.617118666666666	17.069079621409998
0.5864306286700948	5.483216	18.489032398280003
0.5881759579220891	6.4000346666666665	19.91872547983333
0.5899212871740833	7.323408333333333	21.284289586816666
0.5916666164260775	8.209225666666667	22.515845602633334
0.593411945678072	9.016117333333334	23.55137701974333
0.5951572749300664	9.707425666666666	24.339555385216663
0.5969026041820606	10.252170999999999	24.84129820543
0.5986479334340549	10.626542	25.031489322836663
0.6003932626860494	10.81514	24.90017301767333
0.6021385919380438	10.810954333333331	24.452162260156662
0.603883921190038	10.615406	23.706384949966665
0.6056292504420324	10.238889666666665	22.69550989974333
0.6073745796940266	9.699978	21.464012743009995
0.609119908946021	9.023375666666666	20.064835528236664
0.6108652381980153	8.239028666666666	18.5571347958
0.6126105674500095	7.38189	17.00464347313
0.614355896702004	6.489657666666666	15.472077921343331
0.6161012259539983	5.599751333333334	14.02084001835
0.6178465552059926	4.748380666666667	12.707021877619997
0.6195918844579871	3.970283666666667	11.58029542476
0.6213372137099814	3.2963586666666664	10.68091506647
0.6230825429619757	2.751113666666666	10.036800463226665
0.62482787221397	2.352663933333333	9.663487378346666
0.6265732014659642	2.1132427666666667	9.564876428853331
0.6283185307179586	2.037846033333333	9.732353291136665
0.630063859969953	2.1232073333333332	10.14447063282
0.6318091892219473	2.3590696666666666	10.769164472016666
0.6335545184739415	2.729581666666667	11.566247211236666
0.635299847725936	3.213298333333333	12.48857500488
