# O(3P)+CO2(000; j=0) -> O(3P)+CO2(000; j') scattering, statistically averaged (3A2+3B2+3B1) potential energy surfaces
# Differential cross sections; packaged by M. Gacesa (marko.gacesa@nasa.gov), Apr 30 2019
# E = 0.15374 eV
# theta(rad)                 elastic DCS                total DCS (both in units of 1E-16 cm^2/Sr)
0.	890842.0666666667	913165.1549495143
0.0017453292519943296	826076.3	846092.4330789999
0.003490658503988659	668104.4333333333	682790.5086873333
0.005235987755982989	487618.26666666666	496889.76693033334
0.006981317007977318	332238.39999999997	337665.5785716666
0.008726646259971648	215729.56666666665	218971.21377033336
0.010471975511965978	135543.9	137750.21904683334
0.012217304763960305	84217.26666666666	85998.19719703333
0.013962634015954637	52937.98666666667	54507.45289193333
0.015707963267948967	34300.393333333326	35695.859089833335
0.017453292519943295	23444.066666666666	24681.3406612
0.019198621771937624	17176.989999999998	18286.736698633333
0.020943951023931956	13399.783333333335	14422.797797299998
0.02268928027592628	11026.848999999998	12005.130553379999
0.02443460952792061	9513.815999999999	10471.158033133332
0.02617993877991494	8442.947	9375.898475023332
0.027925268031909273	7549.379999999999	8437.525139613334
0.029670597283903602	6727.117	7543.565498356666
0.031415926535897934	5910.224333333334	6629.459273143333
0.03316125578789226	5076.709666666667	5686.512119976666
0.03490658503988659	4273.827666666666	4781.508962883333
0.03665191429188092	3546.057666666666	3973.3477633733332
0.03839724354387525	2910.7763333333332	3287.0014436833335
0.040142572795869566	2398.297333333333	2755.240243793333
0.04188790204786391	2033.5126666666667	2398.062381763333
0.043633231299858244	1798.9879999999998	2186.840194076666
0.04537856055185256	1657.2438333333332	2071.6195528366666
0.047123889803846894	1574.6749333333332	2007.3278029103333
0.04886921905584122	1513.7306666666666	1947.362062745
0.05061454830783555	1439.5720666666666	1853.5945496719999
0.05235987755982988	1336.067	1712.952792414333
0.054105206811824215	1199.8357333333333	1528.477349776
0.05585053606381855	1034.4323333333332	1311.8652795156665
0.05759586531581287	856.8826333333333	1089.3261853186666
0.059341194567807204	691.5482333333332	892.7445743883333
0.061086523819801536	555.4687666666666	742.6088013026666
0.06283185307179587	457.4947	647.288882783
0.0645771823237902	401.68100000000004	607.159203124
0.06632251157578452	383.41186666666664	611.3232621826667
0.06806784082777885	389.6988666666666	639.6701986346666
0.06981317007977318	405.67650000000003	671.3351419259999
0.0715584993317675	417.34563333333335	688.2616406266666
0.07330382858376185	413.1273	677.3092551093333
0.07504915783575618	388.0982666666667	635.0190337923333
0.0767944870877505	344.59753333333333	567.550283019
0.07853981633974483	288.96166666666664	485.91383048066666
0.08028514559173913	230.20574666666667	403.62782434499996
0.08203047484373349	178.7778133333333	334.7636619246666
0.08377580409572782	142.94489666666666	289.48624880866663
0.08552113334772216	126.72368666666667	271.6087166156666
0.08726646259971649	130.05146333333334	279.169384655
0.08901179185171079	148.57433333333333	304.9046704673333
0.09075712110370512	174.52683333333334	337.8569316433333
0.09250245035569944	199.51513333333332	366.95977168366665
0.09424777960769379	216.34443333333334	383.4843123026667
0.09599310885968812	219.88455333333332	382.1409884356667
0.09773843811168244	208.54301	362.46484473966666
0.09948376736367677	184.63049999999998	328.80763429266665
0.1012290966156711	153.0278133333333	288.4117460593333
0.10297442586766543	120.23649	249.833610076
0.10471975511965977	93.2851	221.34014933166668
0.10646508437165408	77.42994666666667	208.33160718599999
0.10821041362364843	74.90842333333333	212.11078089333333
0.10995574287564276	85.43499666666665	230.6156343
0.1117010721276371	106.19221	258.82747290866666
0.11344640137963143	131.82140666666666	289.3515752743333
0.11519173063162574	156.0996	314.61371835166665
0.11693705988362009	173.63492666666667	328.7790667026666
0.11868238913561441	180.42063	328.37793621199995
0.12042771838760875	174.7479033333333	313.199446427
0.12217304763960307	157.94706333333332	286.6808948776666
0.12391837689159738	133.42363666666665	254.34204061566666
0.12566370614359174	105.59076999999999	222.2724425163333
0.12740903539558604	79.75001666666665	196.74009979566668
0.1291543646475804	60.981586666666665	182.81516811196667
0.13089969389957473	52.272243333333336	182.44939304016663
0.13264502315156904	54.26062333333334	194.52317595083332
0.1343903524035634	65.86879666666665	215.85798033956667
0.1361356816555577	84.15649333333333	241.45350239636664
0.13788101090755206	104.69671666666666	265.36301418806664
0.13962634015954636	123.01412666666666	282.49726652046667
0.1413716694115407	135.34307666666666	289.38986120196665
0.143116998663535	138.91467	284.38731690866666
0.14486232791552936	132.94957666666664	268.53093022686664
0.1466076571675237	118.95509333333332	245.4486272037333
0.148352986419518	99.58887	219.63919199543332
0.15009831567151236	78.06743	195.54369786069998
0.15184364492350666	58.28802666666667	177.5187155890667
0.153588974175501	43.84001666666666	168.69323510103334
0.15533430342749535	36.69777333333333	169.71363809556667
0.15707963267948966	37.28219333333333	179.15662320773333
0.158824961931484	44.81992666666666	194.26082289646666
0.16057029118347826	57.14631333333333	211.07285428163328
0.16231562043547265	71.18929666666666	225.3556351551333
0.16406094968746698	83.98206333333333	233.87249973616667
0.16580627893946132	92.91682666666668	234.58835754586667
0.16755160819145565	95.97758333333333	226.7739925931333
0.16929693744344992	92.62919566666666	211.75624853266666
0.1710422666954443	83.90421333333333	192.61635967459998
0.17278759594743864	71.48302733333333	172.7590105457
0.17453292519943298	57.436797999999996	155.36824545999997
0.17627825445142725	44.37947466666666	143.43281743906667
0.17802358370342158	34.689301	138.8460683617
0.17976891295541597	29.672871333333333	141.63467345899997
0.18151424220741025	29.697326333333336	150.40281030263333
0.18325957145940458	34.318732	162.79145133886666
0.18500490071139888	42.099242	175.61023282140002
0.18675022996339324	51.06421066666667	185.67039482593333
0.18849555921538758	59.35571633333333	190.6831363581333
0.1902408884673819	65.24284366666666	189.2562083700333
0.19198621771937624	67.324005	181.0134160308333
0.19373154697137057	65.24464499999999	167.19805015283333
0.19547687622336488	59.687558	150.3394387830333
0.19722220547535924	51.69467066666665	133.1511040653
0.19896753472735354	42.586881	118.18649916896666
0.2007128639793479	34.09606733333333	107.81993111103334
0.2024581932313422	27.783971333333334	103.52534775246666
0.20420352248333656	24.512221666666665	105.3603058257
0.20594885173533087	24.5685	112.30469374786665
0.20769418098732523	27.681591666666666	122.52319433823331
0.20943951023931953	32.875305999999995	133.4773152606
0.2111848394913139	38.84387433333333	142.61717504526666
0.21293016874330817	44.37153933333333	148.03016273826665
0.21467549799530256	48.262781999999994	148.4185826081
0.21642082724729686	49.51489433333333	143.26246155309997
0.2181661564992912	47.86968033333333	133.3193643027
0.21991148575128552	43.777148999999994	120.36791009893332
0.22165681500327983	37.91352466666666	106.4169805817
0.2234021442552742	31.17529033333333	93.48423111119999
0.22514747350726852	24.783486333333332	83.54881400273332
0.22689280275926285	19.855960333333332	77.97557492296666
0.22863813201125716	17.04720233333333	77.11753232083333
0.2303834612632515	16.637815666666665	80.51606010013333
0.23212879051524585	18.507663666666666	87.02611025389999
0.23387411976724018	22.017165666666664	94.87539249243333
0.23561944901923448	26.278071666666666	102.16864579546666
0.23736477827122882	30.429057	107.35136313853332
0.23911010752322315	33.568829666666666	109.21665917256666
0.2408554367752175	34.89983266666667	107.0829585967
0.24260076602721184	34.14155266666666	101.2044244416
0.24434609527920614	31.510171333333332	92.62286813879999
0.24609142453120048	27.396524999999997	82.64354515329998
0.24783675378319475	22.390743	72.704851179
0.24958208303518917	17.365275666666665	64.3380963127
0.25132741228718347	13.167304000000001	58.73081932946667
0.2530727415391778	10.358285333333333	56.40641690333332
0.2548180707911721	9.262381666666666	57.317391546066666
0.25656340004316636	9.923424999999998	60.887687482699995
0.2583087292951608	11.998218666666666	66.0168332449
0.26005405854715513	14.927782333333333	71.40659600193334
0.26179938779914946	18.116704	75.88133130273333
0.2635447170511437	20.882552333333333	78.41481788453333
0.26529004630313807	22.566237666666666	78.28876144809999
0.26703537555513246	22.841594333333333	75.4201061916
0.2687807048071268	21.722549333333333	70.30319866476665
0.270526034059121	19.355266	63.681180733966656
0.2722713633111154	16.058187333333333	56.48058756056666
0.2740166925631097	12.407454999999999	49.80220113216666
0.2757620218151041	9.026658	44.609804178333334
0.27750735106709834	6.383416333333334	41.46677643463333
0.2792526803190927	4.811947	40.56554577913333
0.280998009571087	4.482925666666667	41.7383108695
0.2827433388230814	5.300727999999999	44.4191473809
0.2844886680750758	6.979292333333333	47.81786579226667
0.28623399732707	9.156550666666666	51.132610922666665
0.28797932657906433	11.367486333333334	53.590323793699994
0.2897246558310587	13.111991333333332	54.562350333266664
0.291469985083053	14.068532666666666	53.801457923566666
0.2932153143350474	14.125405333333333	51.4447227204
0.29496064358704166	13.258574	47.8254667196
0.296705972839036	11.572128000000001	43.445743297899995
0.2984513020910303	9.385267666666666	38.993666673566665
0.3001966313430247	7.104548666666666	35.14280869096666
0.301941960595019	5.067466666666666	32.34831191756666
0.3036872898470133	3.5518458666666666	30.84717928723333
0.30543261909900765	2.770156033333333	30.66782063153333
0.307177948351002	2.778316666666666	31.577428371066663
0.3089232776029963	3.4791794	33.1491388356
0.3106686068549907	4.692526666666666	34.8982078377
0.312413936106985	6.152234	36.33095021296666
0.3141592653589793	7.533960999999999	37.01369311726666
0.31590459461097364	8.580076666666667	36.720003717033336
0.317649923862968	9.142664	35.4608525063
0.3193952531149623	9.124733333333332	33.38754152193333
0.32114058236695653	8.509028666666666	30.77430733956667
0.32288591161895097	7.431863666666667	28.038242870766666
0.3246312408709453	6.119768333333333	25.61998211466667
0.32637657012293964	4.779740666666666	23.835774609299996
0.32812189937493397	3.601167066666666	22.86381348133333
0.32986722862692824	2.7694197000000003	22.75926403753333
0.33161255787892263	2.3966254666666664	23.4095964973
0.3333578871309169	2.4853509666666667	24.545475519566665
0.3351032163829113	2.9684042999999996	25.83054841913333
0.3368485456349056	3.7250049999999995	26.920631739
0.33859387488689985	4.581412	27.505030993699997
0.34033920413889424	5.364343333333332	27.387961187433337
0.3420845333908886	5.9437240000000005	26.530622385399997
0.3438298626428829	6.218637333333334	25.014973107366664
0.3455751918948773	6.130297	23.02600571463333
0.34732052114687156	5.709512999999999	20.85772255313333
0.34906585039886595	5.056937666666666	18.844398482299997
0.3508111796508603	4.279213333333333	17.2571801953
0.3525565089028545	3.484893	16.275962060466668
0.3543018381548489	2.8024836666666664	15.995654348833334
0.35604716740684317	2.3378886666666663	16.3907537383
0.35779249665883756	2.1301786666666667	17.299933055666664
0.35953782591083194	2.1703791666666667	18.481143067866668
0.3612831551628262	2.4242562333333333	19.670024611266665
0.3630284844148205	2.8218369333333335	20.6088826876
0.3647738136668149	3.266973	21.091385042866666
0.36651914291880916	3.670756	21.009870575999997
0.36826447217080355	3.9610543333333332	20.3598761552
0.37000980142279777	4.083496	19.2287558267
0.3717551306747922	4.022914999999999	17.7939925491
0.3735004599267865	3.806306	16.288894404666664
0.3752457891787809	3.474537	14.936561516033331
0.37699111843077515	3.0749706666666663	13.915185486066665
0.3787364476827695	2.6748816666666664	13.352050627633332
0.3804817769347638	2.341876	13.294404665366665
0.38222710618675815	2.1103506666666663	13.683362233666665
0.3839724354387525	1.9880549999999997	14.380557320233333
0.38571776469074687	1.9762353333333333	15.212853910566665
0.38746309394274114	2.0591131999999996	15.9918896126
0.3892084231947355	2.195577533333333	16.538391139566663
0.39095375244672975	2.3407302999999997	16.725877359066665
0.39269908169872414	2.4610605	16.504039491266667
0.39444441095071847	2.5290689666666664	15.895335228766665
0.3961897402027128	2.5281493	14.993615845133334
0.3979350694547071	2.461968333333333	13.951663002666667
0.39968039870670136	2.344505333333333	12.941586837166668
0.4014257279586958	2.1915876666666665	12.121854171666666
0.4031710572106902	2.0293386666666664	11.625341597533332
0.4049163864626844	1.8883826666666668	11.534416584779999
0.4066617157146788	1.782560333333333	11.85039090492
0.4084070449666731	1.7109356666666664	12.50090875742
0.41015237421866746	1.6750369999999999	13.370340404066667
0.41189770347066174	1.672390333333333	14.310967796
0.413643032722656	1.6841506666666666	15.154734177333333
0.41538836197465046	1.6889331999999997	15.751654863566666
0.4171336912266447	1.6779013000000003	16.00234274763333
0.41887902047863906	1.6470382333333333	15.862648078166666
0.42062434973063334	1.5929349986666665	15.347207513199999
0.4223696789826278	1.5216338200000001	14.533833817833333
0.4241150082346221	1.4462185666666665	13.545275648999999
0.42586033748661634	1.3771888	12.523161431999998
0.4276056667386108	1.3256183	11.615125384966667
0.4293509959906051	1.3033746	10.953471290033335
0.43109632524259933	1.3106115666666667	10.622241123433334
0.4328416544945937	1.3359334	10.64876653670333
0.434586983746588	1.3705238	11.017148187699998
0.4363323129985824	1.4061987666666664	11.666977943996665
0.43807764225057666	1.4255756333333331	12.490612846133333
0.43982297150257105	1.4121987999999999	13.3595755347
0.44156830075456543	1.3641723999999997	14.155313147066666
0.44331363000655966	1.2873975666666664	14.776424319499998
0.445058959258554	1.1887697999999998	15.145926050866667
0.4468042885105484	1.0827847	15.228821969799998
0.44854961776254265	0.9907426	15.034004980706666
0.45029494701453704	0.9303499666666666	14.602325037333333
0.4520402762665313	0.9150097333333332	14.00303658106333
0.4537856055185257	0.9546675333333333	13.325169188669998
0.45553093477052	1.0466732333333333	12.653522885529998
0.4572762640225143	1.1746469666666668	12.056808554513333
0.45902159327450864	1.3201661333333332	11.592578434886665
0.460766922526503	1.4634631666666666	11.298106814903331
0.46251225177849725	1.5767220666666666	11.17516915262
0.4642575810304917	1.6336866333333333	11.20035490641
0.46600291028248597	1.6236657666666665	11.343948183776664
0.46774823953448036	1.5475368666666665	11.568177717136665
0.4694935687864746	1.4118400666666666	11.82559901093
0.47123889803846897	1.235045	12.07476793963
0.4729842272904633	1.047765533333333	12.288563039293331
0.47472955654245763	0.8819090333333333	12.4477443717
0.4764748857944519	0.7669155666666666	12.54208124946
0.4782202150464463	0.7289379	12.573740302359997
0.4799655442984406	0.7810547333333333	12.547490310083333
0.481710873550435	0.9189090666666666	12.465218955846666
0.48345620280242924	1.1289703666666666	12.334119826356664
0.4852015320544237	1.3889764666666666	12.163956878396665
0.48694686130641796	1.6614266333333332	11.954537613893331
0.4886921905584123	1.9028164333333333	11.701812819906666
0.49043751981040656	2.0799724333333334	11.412838470923333
0.49218284906240095	2.1696899999999997	11.100679267773332
0.4939281783143953	2.1545835333333327	10.77509141629
0.4956735075663895	2.0325846666666663	10.45134952618
0.4974188368183839	1.8230005	10.156768760943333
0.49916416607037833	1.5575227333333332	9.919787562309999
0.5009094953223726	1.2738863333333332	9.763065359576666
0.5026548245743669	1.015596233333333	9.706109143336665
0.5044001538263612	0.8239205666666667	9.760090905816666
0.5061454830783556	0.7283575133333333	9.920270184376665
0.5078908123303499	0.7468595666666668	10.169823906243334
0.5096361415823442	0.8839505999999999	10.482114243520002
0.5113814708343385	1.1231120666666667	10.8156207569
0.5131268000863327	1.4303816666666667	11.11996009334
0.5148721293383272	1.7669522999999998	11.35119965397
0.5166174585903216	2.0912157	11.474222279246668
0.5183627878423158	2.3572254999999998	11.459294824353336
0.5201081170943103	2.525966333333333	11.291931304756666
0.5218534463463045	2.577047666666666	10.982787747843332
0.5235987755982989	2.5061966666666664	10.56087991712
0.5253441048502931	2.32185	10.065441203053332
0.5270894341022874	2.0488329999999997	9.546815289213335
0.5288347633542818	1.7263346666666666	9.062208085236666
0.5305800926062761	1.3984096666666668	8.663654309666665
0.5323254218582705	1.1088282333333332	8.391952218253333
0.5340707511102649	0.8974091999999999	8.274290935366666
0.5358160803622593	0.7917645966666667	8.317958858876667
0.5375614096142536	0.8030491333333334	8.50853674679
0.5393067388662478	0.9289236333333333	8.81635585862
0.541052068118242	1.1531021	9.199573658363335
0.5427973973702365	1.4432829999999996	9.604750247246665
0.5445427266222308	1.7580506666666667	9.975973534813331
0.5462880558742251	2.0568473333333332	10.26642727007
0.5480333851262194	2.3023216666666664	10.440677381246665
0.5497787143782138	2.4620836666666666	10.47506842671
0.5515240436302082	2.515969333333333	10.363424177006666
0.5532693728822025	2.4601013333333333	10.119165245643332
0.5550147021341967	2.3041053333333332	9.7698048056
0.5567600313861911	2.0692303333333335	9.352503831123332
0.5585053606381855	1.7870906666666664	8.911304941963333
0.5602506898901798	1.494096	8.490783169179998
0.561996019142174	1.22562	8.129742357503332
0.5637413483941685	1.0135456333333333	7.859004179243333
0.5654866776461628	0.8821064999999999	7.698444101943332
0.5672320068981571	0.8426643566666667	7.653325352073333
0.5689773361501516	0.8938194666666668	7.71564763228
0.5707226654021459	1.0245102	7.868213979419999
0.57246799465414	1.2142123333333334	8.085760790773332
0.5742133239061344	1.4343033333333333	8.336812857486667
0.5759586531581287	1.653855333333333	8.589114224973333
0.5777039824101231	1.844531	8.813726561743332
0.5794493116621174	1.9823899999999999	8.986179264816666
0.5811946409141118	2.050864	9.088739851866666
0.582939970166106	2.0435156666666665	9.112362219886666
0.5846852994181004	1.963274666666667	9.055637676973333
0.5864306286700948	1.8211176666666664	8.923856267673333
0.5881759579220891	1.6359446666666666	8.729459088443331
0.5899212871740833	1.4314216666666664	8.489810502356667
0.5916666164260775	1.2308806666666665	8.223628896923334
0.593411945678072	1.0553884666666666	7.950312589033333
0.5951572749300664	0.9230617999999999	7.68977729281
0.5969026041820606	0.8456478333333333	7.459587824736666
0.5986479334340549	0.8262944266666665	7.273183209589999
0.6003932626860494	0.8611726666666667	7.1404784545633335
0.6021385919380438	0.9408614666666666	7.0671803862099996
0.603883921190038	1.050564533333333	7.053515565426666
0.6056292504420324	1.1727643333333333	7.095538396159999
0.6073745796940266	1.2903479999999998	7.1858469588433325
0.609119908946021	1.3873796666666665	7.31218948243
0.6108652381980153	1.4506983333333334	7.45867958053
0.6126105674500095	1.4732859999999999	7.609482402479999
0.614355896702004	1.4541896666666667	7.7489306201099994
0.6161012259539983	1.3959183333333334	7.860270293476667
0.6178465552059926	1.3049183333333332	7.928776577573332
0.6195918844579871	1.192826333333333	7.945412163633333
0.6213372137099814	1.0731365999999998	7.905710999109999
0.6230825429619757	0.9574842666666666	7.8087441868
0.62482787221397	0.8560829666666667	7.659326958803334
0.6265732014659642	0.7780002333333333	7.468382463146668
0.6283185307179586	0.7284485433333333	7.2502292786233316
0.630063859969953	0.7078637233333334	7.02155272109
