# O(3P)+CO2(000; j=0) -> O(3P)+CO2(000; j') scattering, statistically averaged (3A2+3B2+3B1) potential energy surfaces
# Differential cross sections; packaged by M. Gacesa (marko.gacesa@nasa.gov), Apr 30 2019
# E = 0.277725 eV
# theta(rad)                 elastic DCS                total DCS (both in units of 1E-16 cm^2/Sr)
0.	1.1656814666666666e6	1.1897706244910923e6
0.0017453292519943296	1.0387472e6	1.0585792937483331e6
0.003490658503988659	751871.5666666667	763087.5157796666
0.005235987755982989	468510.93333333323	473218.34297833336
0.006981317007977318	267115.36666666664	269146.87881733326
0.008726646259971648	144468.19999999998	146079.40195033333
0.010471975511965978	77138.15999999999	79059.00104273333
0.012217304763960305	43973.666666666664	46134.6080752
0.013962634015954637	28229.34333333333	30276.730701266664
0.015707963267948967	20108.68	21787.40009523333
0.017453292519943295	15375.873333333331	16630.278836533333
0.019198621771937624	11888.596999999998	12793.790431383331
0.020943951023931956	8808.247333333333	9522.534788386665
0.02268928027592628	6329.100666666666	7030.828255106666
0.02443460952792061	4642.761666666666	5452.503705743333
0.02617993877991494	3668.2146666666667	4626.591586456667
0.027925268031909273	3283.39	4361.61447685
0.029670597283903602	3229.7160000000003	4342.61871658
0.031415926535897934	3170.0389999999998	4213.71791682
0.03316125578789226	2945.1539999999995	3843.52346871
0.03490658503988659	2555.242666666666	3280.607391356666
0.03665191429188092	2047.3333333333333	2621.73878718
0.03839724354387525	1533.2590333333333	2018.6392329366668
0.040142572795869566	1144.5522	1615.3073852376667
0.04188790204786391	940.6220666666668	1454.1535613873332
0.043633231299858244	915.5874	1498.765861399
0.04537856055185256	1019.9925999999998	1666.4300942063333
0.047123889803846894	1159.3269	1834.357517185333
0.04886921905584122	1241.2599333333333	1898.544815128333
0.05061454830783555	1220.3471999999997	1821.2046880519997
0.05235987755982988	1093.152833333333	1618.2201634423332
0.054105206811824215	895.1007	1348.8736937583333
0.05585053606381855	692.3051666666667	1099.9225024473335
0.05759586531581287	543.5851333333333	938.6546861119998
0.059341194567807204	479.04303333333337	889.944965923
0.061086523819801536	502.80493333333334	944.1405100983332
0.06283185307179587	588.3270666666666	1057.4050245673334
0.0645771823237902	686.6526	1165.8457519943333
0.06632251157578452	753.7931333333332	1219.1015536616665
0.06806784082777885	761.5828333333334	1192.4867803773332
0.06981317007977318	699.8784666666667	1086.343398716
0.0715584993317675	587.0049333333333	932.7637647869999
0.07330382858376185	461.7253666666667	782.3205564196667
0.07504915783575618	358.98023333333333	674.8619455163333
0.0767944870877505	302.06529	630.7540908586666
0.07853981633974483	301.3516266666667	651.6014242986666
0.08028514559173913	346.07483	715.1054979676667
0.08203047484373349	409.9160766666667	785.1212800966665
0.08377580409572782	466.51167	831.0079087286667
0.08552113334772216	493.28040666666664	832.2279411203332
0.08726646259971649	475.6847	781.4286654036665
0.08901179185171079	418.2163866666666	693.0903074839999
0.09075712110370512	340.58044	595.793384868
0.09250245035569944	263.67036666666667	514.7503372756667
0.09424777960769379	205.82326666666668	467.06350153466667
0.09599310885968812	180.39552666666668	459.945278063
0.09773843811168244	187.88751333333335	484.8501478773333
0.09948376736367677	217.47342000000003	522.5523690499999
0.1012290966156711	254.91288333333333	554.0990900466666
0.10297442586766543	284.09758999999997	563.4239990776666
0.10471975511965977	290.8123233333333	541.0074070339999
0.10646508437165408	271.6040933333333	491.40195270566664
0.10821041362364843	233.31580333333332	429.7599588503333
0.10995574287564276	185.95614333333333	371.7486594336666
0.1117010721276371	141.19283	330.5315003343333
0.11344640137963143	110.58024	314.56032029799997
0.11519173063162574	99.40440699999999	322.3459957263333
0.11693705988362009	105.76637000000001	344.09630670999996
0.11868238913561441	123.93690666666666	367.70406061333335
0.12042771838760875	144.65510666666665	380.67431627099995
0.12217304763960307	157.42372666666665	373.38305663246666
0.12391837689159738	156.62162333333333	345.0295490137333
0.12566370614359174	142.57967333333332	302.8866286817333
0.12740903539558604	118.49869666666666	256.87117207573334
0.1291543646475804	90.26914333333333	217.52710991323335
0.13089969389957473	65.75753666666665	193.9615352583333
0.13264502315156904	50.69943133333334	189.40190034203331
0.1343903524035634	46.950660666666664	200.59604022066665
0.1361356816555577	53.46548666666666	220.5300123856
0.13788101090755206	65.98754333333332	239.7216274365333
0.13962634015954636	78.03610666666665	248.7463796428
0.1413716694115407	84.54725333333332	242.7761933876333
0.143116998663535	83.28745333333332	222.57718501513332
0.14486232791552936	73.93993733333333	192.4057906994
0.1466076571675237	58.57073499999999	159.13296079469998
0.148352986419518	41.66028766666666	130.8285143755333
0.15009831567151236	27.758636666666664	113.36952394253333
0.15184364492350666	19.841642666666665	108.71927458436667
0.153588974175501	19.178314666666665	115.35824262586667
0.15533430342749535	24.765306666666664	128.57248989173334
0.15707963267948966	33.457386666666665	141.79157827653333
0.158824961931484	41.72903	149.46629855483334
0.16057029118347826	46.80115166666667	148.59385839223333
0.16231562043547265	46.788531333333324	138.6681667373
0.16406094968746698	41.41734933333333	121.88390016766667
0.16580627893946132	32.39241466666667	102.64521375103334
0.16755160819145565	22.374862999999998	85.63017578023332
0.16929693744344992	13.966859333333332	74.2703484927
0.1710422666954443	9.223246333333332	70.16344822459999
0.17278759594743864	8.973068333333334	72.60735172476666
0.17453292519943298	12.52582	78.90635571126666
0.17627825445142725	18.24364	85.6968187765
0.17802358370342158	24.099186666666668	90.00660022173332
0.17976891295541597	28.08954	89.86244265643333
0.18151424220741025	28.93559666666667	84.92814223913334
0.18325957145940458	26.50217	76.54888920183333
0.18500490071139888	21.585663333333333	66.9799259491
0.18675022996339324	15.619012666666666	58.618478015433325
0.18849555921538758	10.295545	53.3446556342
0.1902408884673819	6.941305666666667	51.8531679437
0.19198621771937624	6.144081999999999	53.535934732966666
0.19373154697137057	7.785505000000001	56.94176415203333
0.19547687622336488	11.083697666666668	60.24387897743333
0.19722220547535924	14.803363333333332	61.78580513343333
0.19896753472735354	17.745546666666666	60.702805883299995
0.2007128639793479	19.07526	57.10408392123333
0.2024581932313422	18.43376	51.869260696666665
0.20420352248333656	16.080792	46.418501196499996
0.20594885173533087	12.791027666666666	42.23674757746666
0.20769418098732523	9.458321633333334	40.2527202864
0.20943951023931953	6.85896888	40.62450677833333
0.2111848394913139	5.55754	42.836092876433334
0.21293016874330817	5.701296333333333	45.79747695929999
0.21467549799530256	6.9862616666666675	48.205174666233326
0.21642082724729686	8.878814	49.06188024796666
0.2181661564992912	10.756092333333331	47.891098055966665
0.21991148575128552	12.021756666666665	44.7953734435
0.22165681500327983	12.356546666666663	40.5402571084
0.2234021442552742	11.780195	36.280160855666665
0.22514747350726852	10.490800333333333	33.044008920466666
0.22689280275926285	8.822170999999999	31.505207665799993
0.22863813201125716	7.217176333333332	31.893949173800003
0.2303834612632515	6.023011666666666	33.84077363856666
0.23212879051524585	5.398799333333334	36.516474855133325
0.23387411976724018	5.380809633333333	38.99931814263333
0.23561944901923448	5.845220366666666	40.4498562159
0.23736477827122882	6.516260333333333	40.28439303416667
0.23911010752322315	7.1643973333333335	38.48117664833333
0.2408554367752175	7.660857	35.5387665233
0.24260076602721184	7.879290999999999	32.139285326233335
0.24434609527920614	7.7616060000000004	29.018919632033334
0.24609142453120048	7.393074333333333	26.873395543333334
0.24783675378319475	6.875284666666666	26.059377911766667
0.24958208303518917	6.2818016666666665	26.510517776900002
0.25132741228718347	5.726375666666667	27.9053608516
0.2530727415391778	5.279297	29.699408140333333
0.2548180707911721	4.911305333333333	31.219584260366666
0.25656340004316636	4.641849	32.01181554343333
0.2583087292951608	4.544616533333333	31.9466532899
0.26005405854715513	4.592421	31.038218057566667
0.26179938779914946	4.713204	29.472320059966666
0.2635447170511437	4.9111519999999995	27.673622819066665
0.26529004630313807	5.162862666666666	26.055268544833332
0.26703537555513246	5.371279666666666	24.846767488433333
0.2687807048071268	5.481907333333333	24.17431404073333
0.270526034059121	5.4557286666666664	24.010244256300002
0.2722713633111154	5.207417999999999	24.115218073
0.2740166925631097	4.748093666666667	24.2697325652
0.2757620218151041	4.214762666666666	24.38508729413333
0.27750735106709834	3.6884129999999997	24.342734604266667
0.2792526803190927	3.2065569666666662	24.052010809633334
0.280998009571087	2.9022994666666664	23.638430479499995
0.2827433388230814	2.8879136666666665	23.288104012833333
0.2844886680750758	3.1240309999999996	23.053835198766667
0.28623399732707	3.5283276666666668	22.9520849851
0.28797932657906433	4.015841	22.979485649166666
0.2897246558310587	4.421497666666666	22.99545654163333
0.291469985083053	4.605412333333333	22.846198110766665
0.2932153143350474	4.552350666666666	22.495837802799997
0.29496064358704166	4.251040333333333	21.894869890866666
0.296705972839036	3.686636666666666	20.990846513866664
0.2984513020910303	3.0023606666666667	19.940583026499997
0.3001966313430247	2.4190886	19.016005042933333
0.301941960595019	2.0358663	18.359072541566665
0.3036872898470133	1.8869273	18.0441920805
0.30543261909900765	2.025368666666666	18.162720803299997
0.307177948351002	2.4086846666666664	18.6699116464
0.3089232776029963	2.8918486666666667	19.377342401366665
0.3106686068549907	3.3536189999999992	20.107226516399997
0.312413936106985	3.6733156666666664	20.66016509353333
0.3141592653589793	3.706496333333334	20.798230394533334
0.31590459461097364	3.432835	20.448066095766666
0.317649923862968	2.9660409999999997	19.7201315195
0.3193952531149623	2.389440333333333	18.7072462993
0.32114058236695653	1.7732683333333334	17.514786590899995
0.32288591161895097	1.2784091	16.389545095266662
0.3246312408709453	1.0416979	15.565898199666666
0.32637657012293964	1.0660764666666667	15.121213218733331
0.32812189937493397	1.3072196666666667	15.075038075366667
0.32986722862692824	1.703909333333333	15.407500663166665
0.33161255787892263	2.1206866666666664	15.974903525166667
0.3333578871309169	2.427668333333333	16.611347145466667
0.3351032163829113	2.5752198999999996	17.21933696563333
0.3368485456349056	2.5167605666666666	17.665173560699998
0.33859387488689985	2.2146519666666666	17.798815617499997
0.34033920413889424	1.7528441666666668	17.622184157466666
0.3420845333908886	1.2776699999999999	17.229198697
0.3438298626428829	0.8690948333333333	16.651260136799998
0.3455751918948773	0.5827167666666666	15.930230665933331
0.34732052114687156	0.49237792299999994	15.188718864033333
0.34906585039886595	0.6045125666666666	14.515052148366667
0.3508111796508603	0.8565750333333333	13.944070522933334
0.3525565089028545	1.1917517999999998	13.537831779666664
0.3543018381548489	1.5290750333333332	13.325324362266667
0.35604716740684317	1.7527000666666668	13.258540050933334
0.35779249665883756	1.8192675333333332	13.329682488066666
0.35953782591083194	1.7612481333333332	13.568774408666666
0.3612831551628262	1.5862604999999999	13.910817961666666
0.3630284844148205	1.3085742	14.246107467033335
0.3647738136668149	1.020306	14.543255459303333
0.36651914291880916	0.8111645999999999	14.776324047226666
0.36826447217080355	0.7074954666666666	14.862241695479998
0.37000980142279777	0.7286858666666666	14.756518004033333
0.3717551306747922	0.8799790666666667	14.470329560833331
0.3735004599267865	1.1038183	14.0027531902
0.3752457891787809	1.3445483333333332	13.394442548699999
0.37699111843077515	1.5853683333333333	12.758769260133334
0.3787364476827695	1.7728279999999998	12.170789061799997
0.3804817769347638	1.8355536666666668	11.656202445113331
0.38222710618675815	1.7888639999999998	11.296259254543333
0.3839724354387525	1.6921073333333334	11.173071988476666
0.38571776469074687	1.5575816666666666	11.257976686873334
0.38746309394274114	1.4021656666666664	11.481583724156668
0.3892084231947355	1.2879619666666664	11.809388839353332
0.39095375244672975	1.2480189333333334	12.175879925496666
0.39269908169872414	1.2785638	12.485030197383333
0.39444441095071847	1.3902741	12.688490888443335
0.3961897402027128	1.5672184333333332	12.755413212519999
0.3979350694547071	1.7443563333333334	12.639916986086668
0.39968039870670136	1.8945496666666664	12.363983081939999
0.4014257279586958	2.031217333333333	12.012225597503333
0.4031710572106902	2.119238333333333	11.620163552883334
0.4049163864626844	2.1115509999999995	11.197563660450001
0.4066617157146788	2.0377443333333334	10.816683657553334
0.4084070449666731	1.9461300000000001	10.545843364213333
0.41015237421866746	1.838787	10.377930163756666
0.41189770347066174	1.7282099333333332	10.298143789726668
0.413643032722656	1.6536571000000002	10.31174853511
0.41538836197465046	1.6221131999999998	10.387806887263332
0.4171336912266447	1.6284188	10.487394134886665
0.41887902047863906	1.6896327333333332	10.606472682283334
0.42062434973063334	1.7898290666666663	10.718636675426666
0.4223696789826278	1.8754737333333331	10.768890137776665
0.4241150082346221	1.938026	10.758491505276666
0.42586033748661634	1.997287	10.722180055753334
0.4276056667386108	2.024369666666667	10.643341688476665
0.4293509959906051	1.9847096666666664	10.498078138123333
0.43109632524259933	1.9031383333333332	10.319739443816665
0.4328416544945937	1.8096265666666667	10.14035171284
0.434586983746588	1.7015540666666666	9.956763912956667
0.4363323129985824	1.5912454333333335	9.78232038877
0.43807764225057666	1.504390733333333	9.640379657223333
0.43982297150257105	1.4392561333333334	9.524528495393334
0.44156830075456543	1.3963056666666667	9.436978165753333
0.44331363000655966	1.3949770999999997	9.402194213213333
0.445058959258554	1.421823133333333	9.40641587259
0.4468042885105484	1.4375544333333334	9.409127848083333
0.44854961776254265	1.4416117333333331	9.41220335877
0.45029494701453704	1.4491052333333334	9.430052291609998
0.4520402762665313	1.4371619333333332	9.435081897673331
0.4537856055185257	1.3835395	9.402391807276665
0.45553093477052	1.3058478666666664	9.345605747096666
0.4572762640225143	1.2199196666666667	9.27260349553
0.45902159327450864	1.1239109999999999	9.178820769396665
0.460766922526503	1.0300886666666664	9.079560561536667
0.46251225177849725	0.9532986333333333	8.987579002956666
0.4642575810304917	0.8883001	8.893852692326666
0.46600291028248597	0.8382595333333334	8.807042856583333
0.46774823953448036	0.8183822999999999	8.750172421326665
0.4694935687864746	0.8172678666666666	8.71255053014
0.47123889803846897	0.8094861	8.66981560763
0.4729842272904633	0.7972756	8.629804193066665
0.47472955654245763	0.7890096	8.60298975564
0.4764748857944519	0.7697499999999998	8.573644752626667
0.4782202150464463	0.7291055666666667	8.53328395671
0.4799655442984406	0.677844	8.491432878433333
0.481710873550435	0.6218043666666666	8.447342508186665
0.48345620280242924	0.5612078666666667	8.399308935146667
0.4852015320544237	0.5066031666666666	8.359528257806666
0.48694686130641796	0.4640446333333333	8.328372945363332
0.4886921905584123	0.427362	8.29196197583
0.49043751981040656	0.4004595	8.255400398019999
0.49218284906240095	0.3927640333333334	8.231260252756666
0.4939281783143953	0.39571786666666664	8.208544259073333
0.4956735075663895	0.39590859999999994	8.173587840106666
0.4974188368183839	0.39594426666666666	8.133941979486666
0.49916416607037833	0.3982528666666667	8.094844144323332
0.5009094953223726	0.3948923	8.050039677053334
0.5026548245743669	0.3836063666666667	8.001873360623332
0.5044001538263612	0.3688543333333333	7.956397668303333
0.5061454830783556	0.34986643333333334	7.909921689386666
0.5078908123303499	0.32849039999999996	7.865109245876667
0.5096361415823442	0.3128627666666666	7.832814461873333
0.5113814708343385	0.3037036999999999	7.809640875883333
0.5131268000863327	0.29636799999999996	7.784922465763332
0.5148721293383272	0.29524966666666663	7.76339807517
0.5166174585903216	0.3053798666666666	7.751006338063334
0.5183627878423158	0.3217099333333333	7.73905589196
0.5201081170943103	0.3397476	7.72111759211
0.5218534463463045	0.36104899999999995	7.700472941889999
0.5235987755982989	0.3834045666666666	7.67520165386
0.5253441048502931	0.40333643333333324	7.641996098233333
0.5270894341022874	0.4223867333333334	7.605238207706667
0.5288347633542818	0.4396164333333333	7.565294838436667
0.5305800926062761	0.45013276666666663	7.516415792506667
0.5323254218582705	0.4562846333333333	7.46340534405
0.5340707511102649	0.4635824	7.415660392906666
0.5358160803622593	0.470046	7.370678516733332
0.5375614096142536	0.47327653333333336	7.324373922103334
0.5393067388662478	0.4779135333333332	7.283195205333333
0.541052068118242	0.4864644333333333	7.250823905443333
0.5427973973702365	0.4973991333333333	7.223341359263333
0.5445427266222308	0.5123742666666666	7.20036386091
0.5462880558742251	0.5323745	7.182253408813333
0.5480333851262194	0.5532536333333333	7.163011451739999
0.5497787143782138	0.5749061666666666	7.14067020417
0.5515240436302082	0.6009139	7.1186490356366665
0.5532693728822025	0.6273777666666667	7.092599247096667
0.5550147021341967	0.6475851666666667	7.055139232526667
0.5567600313861911	0.6637276999999999	7.010278157226666
0.5585053606381855	0.6789887666666666	6.964219414096666
0.5602506898901798	0.6895287666666667	6.9145985114899995
0.561996019142174	0.6934429333333334	6.860902912373334
0.5637413483941685	0.6943678666666667	6.809551582076666
0.5654866776461628	0.6930462666666666	6.76324316551
0.5672320068981571	0.6895074999999999	6.722066622336666
0.5689773361501516	0.6878772999999999	6.689760133359998
0.5707226654021459	0.6891889333333332	6.66660538778
0.57246799465414	0.6898673	6.647145553870001
0.5742133239061344	0.6922956	6.631551970373334
0.5759586531581287	0.7014808333333333	6.622827955036667
0.5777039824101231	0.7137865	6.61515407863
0.5794493116621174	0.7234003	6.60088315318
0.5811946409141118	0.7327718999999999	6.581688199893333
0.582939970166106	0.7441232666666666	6.559608664443333
0.5846852994181004	0.7530488333333333	6.530514604773332
0.5864306286700948	0.7570592333333332	6.49302985594
0.5881759579220891	0.7582093333333333	6.450718833003333
0.5899212871740833	0.7560398	6.404604669946666
0.5916666164260775	0.7499106333333333	6.355885759493334
0.593411945678072	0.7427356666666667	6.309343889409999
0.5951572749300664	0.7351502000000001	6.266785378079999
0.5969026041820606	0.7246791	6.226540686976667
0.5986479334340549	0.7139008666666666	6.191929872336666
0.6003932626860494	0.7073712	6.16758609531
0.6021385919380438	0.703042	6.150995484869999
0.603883921190038	0.6972865666666667	6.138032735756667
0.6056292504420324	0.6926740333333333	6.130220227300001
0.6073745796940266	0.6913888333333333	6.128056831703334
0.609119908946021	0.6901598	6.127061697263333
0.6108652381980153	0.6866136999999999	6.123980870736666
0.6126105674500095	0.6820426666666668	6.1185012411
0.614355896702004	0.6761242333333333	6.108733293186667
0.6161012259539983	0.667508	6.092971888846667
0.6178465552059926	0.6569811	6.071992541263333
0.6195918844579871	0.6449343333333333	6.045888333616666
0.6213372137099814	0.6300501333333333	6.0137341229766665
0.6230825429619757	0.6136005666666666	5.977967119306666
0.62482787221397	0.5982734	5.942339321753332
0.6265732014659642	0.5833784333333333	5.907504994306667
0.6283185307179586	0.5670913	5.873497447619998
0.630063859969953	0.5512709666666666	5.843439465049999
0.6318091892219473	0.5378922666666666	5.81994960718
0.6335545184739415	0.5252295666666666	5.8024159921
