# O(3P)+CO2(000; j=0) -> O(3P)+CO2(000; j') scattering, statistically averaged (3A2+3B2+3B1) potential energy surfaces
# Differential cross sections; packaged by M. Gacesa (marko.gacesa@nasa.gov), Apr 30 2019
# E = 0.525693 eV
# theta(rad)                 elastic DCS                total DCS (both in units of 1E-16 cm^2/Sr)
0.	1.430529e6	1.4580958671105024e6
0.0017453292519943296	1.2057504e6	1.2270951593366666e6
0.003490658503988659	751466.0333333333	762551.8534569999
0.005235987755982989	389742.1666666666	396002.27228233335
0.006981317007977318	191087.8666666667	196046.50337666663
0.008726646259971648	92019.16666666666	95790.29508840002
0.010471975511965978	45700.33333333333	48323.144233900006
0.012217304763960305	25818.099999999995	27748.467712766665
0.013962634015954637	16338.553	18147.995750866663
0.015707963267948967	12190.555	14350.117062776664
0.017453292519943295	11170.125666666667	13676.689655013333
0.019198621771937624	10591.972666666665	13070.556378563331
0.020943951023931956	9600.237666666666	11700.087194126667
0.02268928027592628	8117.349666666666	9677.848640693332
0.02443460952792061	6123.322666666667	7228.033517783333
0.02617993877991494	4408.242333333334	5346.094922836666
0.027925268031909273	3620.5559999999996	4665.29339484
0.029670597283903602	3545.8053333333337	4788.562749209999
0.031415926535897934	3790.8849999999993	5154.816623183333
0.03316125578789226	3945.366666666667	5259.586483233333
0.03490658503988659	3615.991666666667	4723.0026412199995
0.03665191429188092	2882.314166666667	3750.588066076667
0.03839724354387525	2135.6713333333328	2860.9028044233332
0.040142572795869566	1627.6653666666666	2344.1033737886664
0.04188790204786391	1472.1005333333333	2276.301006774333
0.043633231299858244	1619.9846	2524.095288108667
0.04537856055185256	1808.826933333333	2739.4231873889994
0.047123889803846894	1816.9501999999998	2677.5166879363333
0.04886921905584122	1608.2799	2344.8530088693333
0.05061454830783555	1240.4389999999999	1860.1541560696664
0.05235987755982988	851.5126	1408.9270236123332
0.054105206811824215	609.0557333333334	1170.7900230893333
0.05585053606381855	564.4011333333333	1165.3641562586665
0.05759586531581287	652.2511	1280.0602391809998
0.059341194567807204	772.4197666666666	1385.9049715523333
0.061086523819801536	815.5809666666667	1372.6211060879998
0.06283185307179587	722.8963666666666	1205.0588555556665
0.0645771823237902	536.7756666666667	960.0539106783333
0.06632251157578452	345.19359	745.7357071323333
0.06806784082777885	218.7461833333333	626.526824573
0.06981317007977318	192.76892666666666	614.4818997746667
0.0715584993317675	246.77613666666664	663.9420109566666
0.07330382858376185	316.7584866666666	698.3885168266667
0.07504915783575618	348.20278999999994	672.2842665999999
0.0767944870877505	320.62598	588.8452312129999
0.07853981633974483	244.23792000000003	479.97792330699997
0.08028514559173913	155.70325666666668	390.03229904799997
0.08203047484373349	95.425028	349.981513101
0.08377580409572782	80.45246333333333	355.51157621066665
0.08552113334772216	102.69217333333333	377.9669524866666
0.08726646259971649	138.56775	386.279132105
0.08901179185171079	160.22081666666668	361.081247529
0.09075712110370512	152.41437	305.7814499473333
0.09250245035569944	120.01747666666667	244.28154955899998
0.09424777960769379	79.77949666666666	202.53543652533335
0.09599310885968812	50.01907096666666	193.1605318356667
0.09773843811168244	41.70876666666667	210.83421906200002
0.09948376736367677	52.41548999999999	235.93251260366665
0.1012290966156711	69.92967	246.442563557
0.10297442586766543	81.22767333333333	231.19782222133335
0.10471975511965977	78.59575999999998	194.58604290066665
0.10646508437165408	62.848413333333326	152.29017854966665
0.10821041362364843	42.211906666666664	122.08801176696666
0.10995574287564276	26.34768593333333	114.43641990346669
0.1117010721276371	20.90546333333333	127.5819627507
0.11344640137963143	25.717863333333334	149.5160472673333
0.11519173063162574	35.51871	165.31036765166667
0.11693705988362009	43.12110666666666	165.14420322766665
0.11868238913561441	43.54162	148.205529394
0.12042771838760875	36.34986333333333	122.12812016800001
0.12217304763960307	25.153826666666664	98.54168820206667
0.12391837689159738	15.092755999999998	86.20802583816665
0.12566370614359174	10.087930333333333	86.93262393256666
0.12740903539558604	11.251638	96.5844566952
0.1291543646475804	16.52202333333333	107.68700665666667
0.13089969389957473	22.195226666666663	113.04284339610001
0.13264502315156904	25.358346666666666	109.89811124336666
0.1343903524035634	24.743016666666666	100.30566887176667
0.1361356816555577	20.629296666666665	88.36808384143333
0.13788101090755206	15.192478333333334	78.69265879233333
0.13962634015954636	11.157171566666666	74.34139583259999
0.1413716694115407	9.653680666666666	74.48543295903332
0.143116998663535	10.476696403333332	76.02080428923333
0.14486232791552936	12.926550333333331	76.5735594438
0.1466076571675237	15.461699999999997	74.7745908483
0.148352986419518	16.83279	70.79521603399999
0.15009831567151236	17.23814133333333	66.83922263459999
0.15184364492350666	16.920785666666664	64.64363377153333
0.153588974175501	15.643333333333333	63.94123692983334
0.15533430342749535	14.063648333333333	64.06351009056667
0.15707963267948966	12.987283	64.06770547419998
0.158824961931484	12.195259666666665	62.29258264433333
0.16057029118347826	11.629505533333333	58.27717304816666
0.16231562043547265	11.669005666666665	53.3543249321
0.16406094968746698	11.994766333333333	48.8941686301
0.16580627893946132	12.383794666666667	46.167551828099995
0.16755160819145565	13.211336	46.25849371833333
0.16929693744344992	14.021386333333334	48.40743831143334
0.1710422666954443	13.827997333333332	50.49615994436667
0.17278759594743864	12.722665333333333	51.2230053067
0.17453292519943298	11.212753333333334	50.05888333973333
0.17627825445142725	9.458979	46.8756174574
0.17802358370342158	8.038207066666665	42.7189258768
0.17976891295541597	7.570263333333334	39.11673638873333
0.18151424220741025	7.805441999999999	36.76352657043333
0.18325957145940458	8.412297333333331	35.94364330966667
0.18500490071139888	9.293449666666666	36.63184919873333
0.18675022996339324	9.811455666666667	37.8412078696
0.18849555921538758	9.324666666666666	38.414745869966666
0.1902408884673819	8.095878333333333	38.06079362853333
0.19198621771937624	6.647592666666666	36.88058112816667
0.19373154697137057	5.316622666666666	35.119870188099995
0.19547687622336488	4.559762533333332	33.38134180193333
0.19722220547535924	4.575437033333333	32.07088382236667
0.19896753472735354	4.977230333333333	31.07760447843333
0.2007128639793479	5.4137103333333325	30.329290272066665
0.2024581932313422	5.722478333333332	29.81301249013333
0.20420352248333656	5.6164673333333335	29.32492664483333
0.20594885173533087	4.983327333333333	28.793780768766666
0.20769418098732523	4.14145	28.400582014833333
0.20943951023931953	3.416574766666666	28.206899798899997
0.2111848394913139	2.970700503333333	28.1542401719
0.21293016874330817	2.9056708999999996	28.157053274566664
0.21467549799530256	3.1266636666666665	27.988103502966666
0.21642082724729686	3.336785666666666	27.400581370466668
0.2181661564992912	3.3569156666666666	26.400101231133334
0.21991148575128552	3.169192333333333	25.175098160866668
0.22165681500327983	2.7897493333333334	23.977999313433333
0.2234021442552742	2.311372	23.084382461033332
0.22514747350726852	1.9317502333333332	22.687839348799997
0.22689280275926285	1.7796504	22.7889824354
0.22863813201125716	1.8415426	23.217797582366664
0.2303834612632515	2.025579	23.695416375966666
0.23212879051524585	2.211708333333333	23.962583525866666
0.23387411976724018	2.259055333333333	23.858241332766667
0.23561944901923448	2.1141069999999997	23.354399722366665
0.23736477827122882	1.8594836666666663	22.576765571499998
0.23911010752322315	1.5977866666666665	21.725973335166664
0.2408554367752175	1.3725346666666667	20.93270222373333
0.24260076602721184	1.2699003333333332	20.320368802066668
0.24434609527920614	1.3629123333333333	20.008657834199997
0.24609142453120048	1.5730676666666668	19.9582883945
0.24783675378319475	1.7760426666666664	20.037038339533332
0.24958208303518917	1.9375936666666664	20.20711734653333
0.25132741228718347	2.0030616666666665	20.400022513933333
0.2530727415391778	1.9450189999999998	20.497126335066667
0.2548180707911721	1.8795676666666665	20.49758810026666
0.25656340004316636	1.8781089999999998	20.39144285453333
0.2583087292951608	1.8705496666666666	20.045516148433332
0.26005405854715513	1.9007633333333331	19.503053968066666
0.26179938779914946	2.064503333333333	18.961995509866668
0.2635447170511437	2.2689316666666666	18.458268363666665
0.26529004630313807	2.4109766666666665	18.001923836899998
0.26703537555513246	2.5292376666666665	17.745997939733332
0.2687807048071268	2.587019333333333	17.701934151099998
0.270526034059121	2.5513099999999995	17.773323235366668
0.2722713633111154	2.5559136666666666	17.984652555466667
0.2740166925631097	2.632487333333333	18.243319400699995
0.2757620218151041	2.646478	18.283599368266668
0.27750735106709834	2.648341666666666	18.0986562358
0.2792526803190927	2.754259	17.8405313342
0.280998009571087	2.8664313333333333	17.473774221499998
0.2827433388230814	2.9099256666666666	17.009337195833332
0.2844886680750758	2.9478266666666664	16.62210145063333
0.28623399732707	2.9258653333333333	16.3238919326
0.28797932657906433	2.8126789999999997	16.0906863644
0.2897246558310587	2.753643666666666	16.05297511913333
0.291469985083053	2.7552233333333334	16.159738625966668
0.2932153143350474	2.6754016666666667	16.181876438366665
0.29496064358704166	2.5831939999999998	16.1416541982
0.296705972839036	2.5873196666666662	16.132722915466665
0.2984513020910303	2.593825333333333	16.04755617793333
0.3001966313430247	2.5593799999999995	15.862882506733332
0.301941960595019	2.5396583333333336	15.676360846966666
0.3036872898470133	2.459789333333333	15.432274710333333
0.30543261909900765	2.3004093333333335	15.134830828433333
0.307177948351002	2.198403	14.953059425933334
0.3089232776029963	2.1399375333333333	14.864024102966667
0.3106686068549907	2.006732566666667	14.722799516833334
0.312413936106985	1.8726115333333335	14.599727128433333
0.3141592653589793	1.81324	14.554665148
0.31590459461097364	1.751743433333333	14.487639987366666
0.317649923862968	1.6800811333333334	14.400043998866666
0.3193952531149623	1.6355054666666666	14.331229042133334
0.32114058236695653	1.5393754333333334	14.1813008733
0.32288591161895097	1.3923758666666664	13.9666618077
0.3246312408709453	1.3026360666666665	13.826343704233333
0.32637657012293964	1.2417729666666664	13.722182177766665
0.32812189937493397	1.1334011666666666	13.570827995333332
0.32986722862692824	1.0387288333333333	13.4467624454
0.33161255787892263	0.9837833666666667	13.359768358600002
0.3333578871309169	0.9181603999999999	13.246976896366665
0.3351032163829113	0.8676712333333333	13.158599184
0.3368485456349056	0.8452559333333333	13.1015579592
0.33859387488689985	0.7800225666666667	12.972708406166667
0.34033920413889424	0.694228	12.813119565899997
0.3420845333908886	0.6573529	12.720898751333332
0.3438298626428829	0.6337713666666667	12.645071074199999
0.3455751918948773	0.5964702	12.556451201633331
0.34732052114687156	0.5855981	12.509082747033332
0.34906585039886595	0.5754566	12.454222573733333
0.3508111796508603	0.5455083	12.360173769133334
0.3525565089028545	0.5499734	12.3068658119
0.3543018381548489	0.5758357666666667	12.266823382733332
0.35604716740684317	0.5627545666666667	12.142675511766665
0.35779249665883756	0.5510132333333333	11.9951026616
0.35953782591083194	0.5727444666666666	11.885730277899999
0.3612831551628262	0.5906280333333332	11.768521576086666
0.3630284844148205	0.6227718999999999	11.671805172023333
0.3647738136668149	0.6878460666666666	11.637598263706666
0.36651914291880916	0.7170388999999999	11.583485759933334
0.36826447217080355	0.7168459	11.5113983578
0.37000980142279777	0.7632897000000001	11.517182912513334
0.3717551306747922	0.8216313999999999	11.542252340126666
0.3735004599267865	0.8400358333333333	11.490750294396666
0.3752457891787809	0.8724726	11.421119835223331
0.37699111843077515	0.9253748333333333	11.352243118233332
0.3787364476827695	0.9626116333333333	11.237220906556667
0.3804817769347638	1.0324424333333333	11.137924180676666
0.38222710618675815	1.1360828333333333	11.084205641759997
0.3839724354387525	1.1759114	10.983540895543332
0.38571776469074687	1.1750802999999999	10.872417538136666
0.38746309394274114	1.2209884999999998	10.86192596355
0.3892084231947355	1.2646718666666665	10.888137644303331
0.39095375244672975	1.2585039999999998	10.870723854826666
0.39269908169872414	1.2654206666666665	10.864215382183334
0.39444441095071847	1.2849466666666667	10.857294384883332
0.3961897402027128	1.2861189999999998	10.79843858036
0.3979350694547071	1.328637	10.749458975029999
0.39968039870670136	1.4064373333333333	10.7171777114
0.4014257279586958	1.4169286666666665	10.60562245481
0.4031710572106902	1.3876706666666667	10.46351093493
0.4049163864626844	1.4006706666666666	10.39746454873
0.4066617157146788	1.402232	10.354824568666665
0.4084070449666731	1.3485633333333333	10.285906934773331
0.41015237421866746	1.3006986666666667	10.247765295129998
0.41189770347066174	1.2601405333333333	10.223456859393332
0.413643032722656	1.2044388666666666	10.173603114783333
0.41538836197465046	1.1895954333333334	10.152344765456666
0.4171336912266447	1.2102174999999997	10.147865010873334
0.41887902047863906	1.1816661999999998	10.07082082352333
0.42062434973063334	1.1289030333333332	9.96152666521
0.4223696789826278	1.1137596	9.895453571756667
0.4241150082346221	1.0879521666666667	9.828099694259999
0.42586033748661634	1.0175946	9.73716252096
0.4276056667386108	0.9497693333333334	9.672157219919999
0.4293509959906051	0.8839283666666666	9.615043876306666
0.43109632524259933	0.8072954333333333	9.549542133973333
0.4328416544945937	0.7643166	9.52754000173
0.434586983746588	0.7498012	9.530079450653332
0.4363323129985824	0.7062664666666666	9.487030794946666
0.43807764225057666	0.6543084333333333	9.428900994813333
0.43982297150257105	0.6297840666666666	9.393577780286666
0.44156830075456543	0.5973764333333333	9.3408956374
0.44331363000655966	0.5412433999999999	9.266486903066667
0.445058959258554	0.4904761333333333	9.199823869583334
0.4468042885105484	0.43786643333333336	9.114454659
0.44854961776254265	0.38209676666666664	9.014128323789999
0.45029494701453704	0.3561843333333333	8.950691963923333
0.4520402762665313	0.3512708333333333	8.906180309166665
0.4537856055185257	0.3344748333333333	8.8385224511
0.45553093477052	0.3214851	8.779560736859999
0.4572762640225143	0.3209951	8.74347011249
0.45902159327450864	0.31103766666666666	8.701102460756665
0.460766922526503	0.29762546666666667	8.665167819036666
0.46251225177849725	0.29237579999999996	8.643613834813332
0.4642575810304917	0.2765692333333333	8.594346010639999
0.46600291028248597	0.2619024666666666	8.528300165013334
0.46774823953448036	0.27767393333333334	8.48889361733
0.4694935687864746	0.30782059999999994	8.449871212573331
0.47123889803846897	0.33337063333333333	8.383325615856666
0.4729842272904633	0.36747386666666665	8.321160496003332
0.47472955654245763	0.3982530333333333	8.264704323219998
0.4764748857944519	0.41108915	8.198763887836666
0.4782202150464463	0.42912145	8.155367273126666
0.4799655442984406	0.45161747666666663	8.13643662492
0.481710873550435	0.4482467233333334	8.096765411596666
0.48345620280242924	0.44280643	8.056911827759999
0.4852015320544237	0.47060540333333334	8.057743704636666
0.48694686130641796	0.5101125333333333	8.065135609126665
0.4886921905584123	0.5455213999999999	8.050704247196666
0.49043751981040656	0.5921909666666666	8.037995426253332
0.49218284906240095	0.6316754333333333	8.015371708203332
0.4939281783143953	0.6488756666666666	7.965472607769998
0.4956735075663895	0.6702911333333332	7.919272164626666
0.4974188368183839	0.6896012666666667	7.874351602113333
0.49916416607037833	0.6714169333333333	7.79033941094
0.5009094953223726	0.6442884333333333	7.696370958676667
0.5026548245743669	0.6495301333333333	7.638886732963333
0.5044001538263612	0.6665845333333333	7.5945103738499995
0.5061454830783556	0.6801153666666666	7.546226662296668
0.5078908123303499	0.7096263666666666	7.520780931926666
0.5096361415823442	0.7414399333333332	7.509212140653333
0.5113814708343385	0.7573576	7.493017529003333
0.5131268000863327	0.7754717666666666	7.49009197285
0.5148721293383272	0.7875757999999999	7.487775403493332
0.5166174585903216	0.7596113333333332	7.4428410288133335
0.5183627878423158	0.7149902	7.3712859885399995
0.5201081170943103	0.6926731666666666	7.305571219863333
0.5218534463463045	0.6776707	7.2268501399366665
0.5235987755982989	0.6570689333333333	7.126902713206666
0.5253441048502931	0.6530764666666666	7.037043196579999
0.5270894341022874	0.6623255333333333	6.963607052073333
0.5288347633542818	0.6674390333333333	6.904062156886667
0.5305800926062761	0.6755325666666666	6.878953304946666
0.5323254218582705	0.6797392333333333	6.883118800149999
0.5340707511102649	0.6533555999999999	6.884711896113332
0.5358160803622593	0.6092556666666666	6.887588157139999
0.5375614096142536	0.5751895333333333	6.90143529271
0.5393067388662478	0.5428121666666667	6.899864076213333
0.541052068118242	0.503732	6.865708736593334
0.5427973973702365	0.4777654333333333	6.811458064986667
0.5445427266222308	0.4693993666666666	6.738254230156667
0.5462880558742251	0.4663031333333333	6.648468021156667
0.5480333851262194	0.467249	6.56331353006
0.5497787143782138	0.46770340000000005	6.491522628326665
0.5515240436302082	0.4519772333333334	6.4283119764066665
0.5532693728822025	0.4231269333333333	6.387619780883332
0.5550147021341967	0.3934645333333333	6.378954877936666
0.5567600313861911	0.36138107999999997	6.388160078476666
0.5585053606381855	0.32654941	6.40333966802
0.5602506898901798	0.30201624	6.419938347666666
0.561996019142174	0.2926732233333333	6.422302036866666
0.5637413483941685	0.29419362	6.401698749136667
0.5654866776461628	0.30314438999999993	6.36174841631
0.5672320068981571	0.3139490033333333	6.299866748993333
0.5689773361501516	0.31781791666666664	6.214960894203333
0.5707226654021459	0.3119445833333333	6.12312145648
0.57246799465414	0.29521558999999997	6.037163254216667
0.5742133239061344	0.2693195233333333	5.962964606036666
0.5759586531581287	0.24212839666666666	5.911466927423334
0.5777039824101231	0.22085749666666668	5.88696028394
0.5794493116621174	0.2072666333333333	5.879281447239999
0.5811946409141118	0.2069414333333333	5.885830103516666
0.582939970166106	0.22231523333333336	5.905358224696666
0.5846852994181004	0.2459961	5.921475101056666
0.5864306286700948	0.2703025333333333	5.919268371199999
0.5881759579220891	0.29135853333333334	5.899078200776666
0.5899212871740833	0.3005115333333333	5.8584043886599995
0.5916666164260775	0.2957086666666667	5.796423576953332
0.593411945678072	0.28544260999999993	5.724860581303334
0.5951572749300664	0.2724210633333333	5.652444789703333
0.5969026041820606	0.2543202533333333	5.579654415706665
0.5986479334340549	0.24280227000000001	5.519793566133332
0.6003932626860494	0.24908129666666667	5.4871841393833325
0.6021385919380438	0.26734753333333333	5.47699180914
0.603883921190038	0.28995472	5.480358924593333
0.6056292504420324	0.31746711333333333	5.498459518056667
0.6073745796940266	0.3431880866666666	5.524796863660001
0.609119908946021	0.3590895033333333	5.546902860703334
0.6108652381980153	0.36688963333333335	5.559988087193333
0.6126105674500095	0.36676767	5.56038868
0.614355896702004	0.35376226666666666	5.540415103526667
0.6161012259539983	0.33685853666666665	5.50470537699
0.6178465552059926	0.32993076666666665	5.464830891686667
0.6195918844579871	0.3311386333333333	5.4232342104899995
0.6213372137099814	0.3338835333333333	5.38061019173
0.6230825429619757	0.34406213333333335	5.348728927283333
0.62482787221397	0.3636597	5.336108993706667
0.6265732014659642	0.38284949999999995	5.340232422173334
0.6283185307179586	0.3951933333333333	5.357330366103334
